,Time,Intensity
3,0.000197,14.0
4,0.005055,10.0
5,0.009915,2.0
6,0.014783,13.0
7,0.019727,8.0
8,0.024587,7.0
9,0.029455,10.0
10,0.03435,11.0
11,0.03921,10.0
12,0.044078,5.0
13,0.048938,10.0
14,0.053797,802.0
15,0.058665,149.0
16,0.06361,48.0
17,0.068593,14.0
18,0.073462,646.0
19,0.078322,158.0
20,0.08318,35.0
21,0.088053,18.0
22,0.092913,780.0
23,0.097773,179.0
24,0.10268,33.0
25,0.107625,20.0
26,0.112483,796.0
27,0.117353,169.0
28,0.122212,31.0
29,0.127072,25.0
30,0.13193,717.0
31,0.136827,141.0
32,0.141687,44.0
33,0.146628,17.0
34,0.151488,718.0
35,0.156348,144.0
36,0.161207,52.0
37,0.166067,17.0
38,0.170968,750.0
39,0.175828,171.0
40,0.180687,48.0
41,0.18563,14.0
42,0.190488,552.0
43,0.19535,124.0
44,0.200208,44.0
45,0.205105,16.0
46,0.209963,687.0
47,0.214823,166.0
48,0.219683,38.0
49,0.22463,13.0
50,0.22949,618.0
51,0.23435,111.0
52,0.239245,47.0
53,0.244105,19.0
54,0.248963,627.0
55,0.253822,168.0
56,0.25869,55.0
57,0.263638,21.0
58,0.268557,720.0
59,0.273465,109.0
60,0.278325,33.0
61,0.283183,19.0
62,0.288052,788.0
63,0.292912,144.0
64,0.29777,35.0
65,0.302638,21.0
66,0.307622,649.0
67,0.31248,129.0
68,0.317348,39.0
69,0.322208,17.0
70,0.327067,614.0
71,0.331935,173.0
72,0.336795,48.0
73,0.341693,12.0
74,0.346655,695.0
75,0.351515,131.0
76,0.356373,45.0
77,0.361242,17.0
78,0.3661,690.0
79,0.37096,139.0
80,0.375865,50.0
81,0.380725,16.0
82,0.385678,590.0
83,0.390547,140.0
84,0.395407,47.0
85,0.400265,18.0
86,0.405123,663.0
87,0.41002,128.0
88,0.41488,41.0
89,0.419738,16.0
90,0.424597,744.0
91,0.429547,154.0
92,0.434407,41.0
93,0.439265,15.0
94,0.444162,617.0
95,0.449022,155.0
96,0.453882,40.0
97,0.458742,22.0
98,0.4636,704.0
99,0.468642,161.0
100,0.473502,32.0
101,0.478398,16.0
102,0.483257,630.0
103,0.48812,149.0
104,0.49298,42.0
105,0.49784,31.0
106,0.502698,671.0
107,0.507643,154.0
108,0.51254,35.0
109,0.5174,15.0
110,0.522258,680.0
111,0.527117,145.0
112,0.531978,50.0
113,0.536837,9.0
114,0.541697,678.0
115,0.546687,141.0
116,0.551545,38.0
117,0.556405,16.0
118,0.561265,591.0
119,0.566123,165.0
120,0.570982,40.0
121,0.57585,16.0
122,0.580747,579.0
123,0.585605,176.0
124,0.590562,24.0
125,0.595422,12.0
126,0.60028,753.0
127,0.605148,164.0
128,0.61001,36.0
129,0.614907,20.0
130,0.619775,693.0
131,0.624633,150.0
132,0.629493,45.0
133,0.634445,2.0
134,0.639305,709.0
135,0.644163,177.0
136,0.649068,16.0
137,0.653928,12.0
138,0.658787,733.0
139,0.663655,116.0
140,0.668515,34.0
141,0.673373,20.0
142,0.678328,644.0
143,0.683223,115.0
144,0.688083,33.0
145,0.692942,13.0
146,0.697802,610.0
147,0.70266,123.0
148,0.70752,29.0
149,0.71238,17.0
150,0.717368,690.0
151,0.722227,117.0
152,0.727087,25.0
153,0.731945,16.0
154,0.736805,672.0
155,0.741668,147.0
156,0.746528,43.0
157,0.751423,19.0
158,0.756283,682.0
159,0.761218,156.0
160,0.766077,32.0
161,0.770938,25.0
162,0.775798,640.0
163,0.780657,156.0
164,0.785553,35.0
165,0.79042,13.0
166,0.795278,648.0
167,0.800137,131.0
168,0.805087,26.0
169,0.809947,19.0
170,0.814805,696.0
171,0.819708,112.0
172,0.824568,38.0
173,0.829427,17.0
174,0.834398,658.0
175,0.839257,156.0
176,0.844117,34.0
177,0.848985,11.0
178,0.85397,765.0
179,0.85883,129.0
180,0.863697,38.0
181,0.868558,20.0
182,0.873417,721.0
183,0.878292,170.0
184,0.88315,26.0
185,0.888047,31.0
186,0.893003,653.0
187,0.897863,122.0
188,0.902722,28.0
189,0.907592,17.0
190,0.91245,690.0
191,0.917313,128.0
192,0.922223,31.0
193,0.927172,16.0
194,0.932032,757.0
195,0.9369,140.0
196,0.941758,32.0
197,0.946618,15.0
198,0.951492,587.0
199,0.956387,140.0
200,0.961247,42.0
201,0.966105,12.0
202,0.97105,621.0
203,0.975908,131.0
204,0.980768,36.0
205,0.985627,25.0
206,0.990527,761.0
207,0.995387,181.0
208,1.000247,31.0
209,1.00511,12.0
210,1.00997,646.0
211,1.014905,153.0
212,1.019763,38.0
213,1.02466,18.0
214,1.029518,614.0
215,1.034378,171.0
216,1.039238,31.0
217,1.044097,13.0
218,1.048957,639.0
219,1.053815,121.0
220,1.058825,44.0
227,0.000207,9.0
228,0.005065,13.0
229,0.00993,19.0
230,0.014798,7.0
231,0.019658,8.0
232,0.024517,2.0
233,0.029482,9.0
234,0.034378,9.0
235,0.039237,8.0
236,0.044105,6.0
237,0.048963,4.0
238,0.053823,13.0
239,0.058682,15.0
240,0.063542,14.0
241,0.068523,3.0
242,0.073382,244.0
243,0.07824,285.0
244,0.0831,50.0
245,0.08796,33.0
246,0.092822,9.0
247,0.097682,141.0
248,0.102577,244.0
249,0.107437,67.0
250,0.112383,23.0
251,0.117242,13.0
252,0.122102,190.0
253,0.126962,251.0
254,0.131822,46.0
255,0.136717,14.0
256,0.141577,8.0
257,0.146435,136.0
258,0.151295,304.0
259,0.156245,75.0
260,0.161105,19.0
261,0.165965,10.0
262,0.170868,215.0
263,0.175728,212.0
264,0.180592,77.0
265,0.185465,12.0
266,0.190325,11.0
267,0.19527,137.0
268,0.200138,244.0
269,0.205033,53.0
270,0.209892,23.0
271,0.214767,6.0
272,0.219627,139.0
273,0.224485,248.0
274,0.22944,66.0
275,0.234298,20.0
276,0.239195,15.0
277,0.244063,190.0
278,0.248925,263.0
279,0.253783,52.0
280,0.258652,7.0
281,0.263512,6.0
282,0.268458,177.0
283,0.273363,263.0
284,0.278223,52.0
285,0.283082,6.0
286,0.287957,0.0
287,0.292825,119.0
288,0.297685,245.0
289,0.302543,59.0
290,0.307515,24.0
291,0.312375,13.0
292,0.317233,154.0
293,0.322093,257.0
294,0.326952,43.0
295,0.331812,33.0
296,0.336672,23.0
297,0.341567,118.0
298,0.346427,221.0
299,0.351372,59.0
300,0.35623,15.0
301,0.361088,15.0
302,0.365952,128.0
303,0.370812,195.0
304,0.375708,47.0
305,0.380567,18.0
306,0.385427,15.0
307,0.390287,105.0
308,0.395232,219.0
309,0.400092,64.0
310,0.404952,18.0
311,0.409847,11.0
312,0.414707,131.0
313,0.419565,265.0
314,0.424425,56.0
315,0.429293,20.0
316,0.434242,24.0
317,0.439102,149.0
318,0.444005,233.0
319,0.448865,63.0
320,0.453723,25.0
321,0.458592,8.0
322,0.463453,100.0
323,0.468313,214.0
324,0.473185,59.0
325,0.478168,16.0
326,0.483027,7.0
327,0.487895,219.0
328,0.49276,226.0
329,0.49762,45.0
330,0.502488,20.0
331,0.507347,10.0
332,0.512243,122.0
333,0.517193,231.0
334,0.522052,67.0
335,0.52691,25.0
336,0.531778,13.0
337,0.536638,119.0
338,0.541498,221.0
339,0.546393,47.0
340,0.551253,19.0
341,0.556113,13.0
342,0.561057,174.0
343,0.565915,262.0
344,0.570775,61.0
345,0.57564,9.0
346,0.580537,6.0
347,0.585395,108.0
348,0.590255,207.0
349,0.595113,49.0
350,0.600057,19.0
351,0.604915,11.0
352,0.609775,124.0
353,0.614672,266.0
354,0.61953,72.0
355,0.62439,17.0
356,0.629248,15.0
357,0.634108,107.0
358,0.639052,192.0
359,0.643912,54.0
360,0.648807,19.0
361,0.653667,23.0
362,0.658533,124.0
363,0.663392,244.0
364,0.668252,43.0
365,0.673178,29.0
366,0.678037,14.0
367,0.683018,213.0
368,0.68788,233.0
369,0.692745,51.0
370,0.697603,15.0
371,0.702472,8.0
372,0.70733,106.0
373,0.71219,289.0
374,0.717095,60.0
375,0.721955,24.0
376,0.726893,13.0
377,0.731762,160.0
378,0.736622,249.0
379,0.74148,63.0
380,0.746355,19.0
381,0.75125,12.0
382,0.756113,138.0
383,0.761072,176.0
384,0.76593,34.0
385,0.770792,18.0
386,0.775667,5.0
387,0.780527,100.0
388,0.785423,236.0
389,0.790292,55.0
390,0.795153,29.0
391,0.800102,17.0
392,0.80497,153.0
393,0.80983,212.0
394,0.814688,74.0
395,0.819598,28.0
396,0.824457,10.0
397,0.829317,144.0
398,0.834265,223.0
399,0.839125,38.0
400,0.843983,26.0
401,0.848843,12.0
402,0.853738,99.0
403,0.858598,263.0
404,0.863462,58.0
405,0.86841,32.0
406,0.873332,17.0
407,0.878192,182.0
408,0.88305,203.0
409,0.887947,71.0
410,0.892805,13.0
411,0.897665,8.0
412,0.902525,121.0
413,0.907383,216.0
414,0.912327,43.0
415,0.917187,18.0
416,0.922083,7.0
417,0.926942,182.0
418,0.931802,222.0
419,0.936665,51.0
420,0.941523,10.0
421,0.946383,12.0
422,0.951327,165.0
423,0.956223,219.0
424,0.961083,69.0
425,0.965943,21.0
426,0.970803,8.0
427,0.97567,112.0
428,0.98053,221.0
429,0.985388,54.0
430,0.990382,15.0
431,0.99524,13.0
432,1.000098,193.0
433,1.004967,266.0
434,1.009825,43.0
435,1.014685,23.0
436,1.019553,0.0
437,1.02445,129.0
438,1.02931,219.0
439,1.034262,49.0
440,1.03912,19.0
441,1.044017,10.0
448,0.000197,14.0
449,0.005063,10.0
450,0.009923,11.0
451,0.014782,12.0
452,0.019685,13.0
453,0.024545,16.0
454,0.029403,17.0
455,0.034278,14.0
456,0.039222,8.0
457,0.04408,10.0
458,0.048948,10.0
459,0.053847,373.0
460,0.058705,74.0
461,0.063575,28.0
462,0.068435,9.0
463,0.073293,14.0
464,0.078163,377.0
465,0.083112,74.0
466,0.088007,26.0
467,0.092877,25.0
468,0.097735,7.0
469,0.102595,371.0
470,0.107467,88.0
471,0.112327,21.0
472,0.117187,14.0
473,0.122082,4.0
474,0.127032,380.0
475,0.131892,68.0
476,0.13675,38.0
477,0.141608,9.0
478,0.146468,17.0
479,0.151328,344.0
480,0.156225,100.0
481,0.161083,30.0
482,0.165945,19.0
483,0.170887,10.0
484,0.175745,350.0
485,0.180605,82.0
486,0.185463,18.0
487,0.190365,10.0
488,0.195223,16.0
489,0.200083,402.0
490,0.204942,84.0
491,0.209802,16.0
492,0.214663,13.0
493,0.219618,7.0
494,0.224513,372.0
495,0.229372,91.0
496,0.234238,34.0
497,0.239098,12.0
498,0.243958,11.0
499,0.248825,440.0
500,0.25377,94.0
501,0.258667,33.0
502,0.263548,10.0
503,0.268408,15.0
504,0.273267,412.0
505,0.278133,96.0
506,0.282993,33.0
507,0.287853,15.0
508,0.292758,8.0
509,0.297702,376.0
510,0.302562,92.0
511,0.30743,23.0
512,0.31229,12.0
513,0.31715,8.0
514,0.32202,392.0
515,0.326915,90.0
516,0.331775,29.0
517,0.336725,19.0
518,0.341585,11.0
519,0.346443,416.0
520,0.351312,116.0
521,0.35617,15.0
522,0.361067,15.0
523,0.365927,8.0
524,0.370785,433.0
525,0.375645,106.0
526,0.38059,21.0
527,0.385448,13.0
528,0.390308,11.0
529,0.395203,388.0
530,0.400065,91.0
531,0.404927,21.0
532,0.409785,7.0
533,0.414645,11.0
534,0.419505,488.0
535,0.424453,98.0
536,0.42935,34.0
537,0.434212,25.0
538,0.43907,7.0
539,0.443928,390.0
540,0.448788,85.0
541,0.453648,35.0
542,0.458508,8.0
543,0.463498,8.0
544,0.468358,456.0
545,0.473217,100.0
546,0.478077,30.0
547,0.482935,17.0
548,0.487795,20.0
549,0.492668,467.0
550,0.497563,82.0
551,0.502507,20.0
552,0.507375,12.0
553,0.512233,9.0
554,0.517093,351.0
555,0.521962,114.0
556,0.526822,21.0
557,0.531717,12.0
558,0.536585,22.0
559,0.541445,395.0
560,0.546398,107.0
561,0.551267,17.0
562,0.556125,13.0
563,0.560985,14.0
564,0.565897,424.0
565,0.570758,96.0
566,0.575618,14.0
567,0.580485,16.0
568,0.585345,8.0
569,0.590295,363.0
570,0.595163,94.0
571,0.60006,21.0
572,0.604918,8.0
573,0.609777,10.0
574,0.614637,502.0
575,0.619495,108.0
576,0.624355,44.0
577,0.629302,16.0
578,0.634198,7.0
579,0.639057,410.0
580,0.643917,97.0
581,0.64878,27.0
582,0.653642,8.0
583,0.658502,17.0
584,0.663362,459.0
585,0.668345,66.0
586,0.673205,25.0
587,0.678063,6.0
588,0.682923,6.0
589,0.687782,441.0
590,0.692642,87.0
591,0.697502,33.0
592,0.702397,32.0
593,0.707347,4.0
594,0.712207,409.0
595,0.717068,115.0
596,0.721927,28.0
597,0.726787,16.0
598,0.731647,13.0
599,0.73655,480.0
600,0.74141,118.0
601,0.746268,30.0
602,0.751227,15.0
603,0.756087,3.0
604,0.760947,470.0
605,0.765815,99.0
606,0.770713,19.0
607,0.775572,17.0
608,0.78044,15.0
609,0.7853,419.0
610,0.790158,113.0
611,0.795112,18.0
612,0.79997,15.0
613,0.804867,3.0
614,0.809735,496.0
615,0.814593,70.0
616,0.819453,36.0
617,0.824323,13.0
618,0.829183,4.0
619,0.834135,472.0
620,0.83904,102.0
621,0.843898,45.0
622,0.848758,20.0
623,0.853617,15.0
624,0.858477,401.0
625,0.863335,77.0
626,0.868197,21.0
627,0.873183,22.0
628,0.878043,11.0
629,0.882902,362.0
630,0.88776,116.0
631,0.89262,19.0
632,0.89748,15.0
633,0.902338,14.0
634,0.907235,357.0
635,0.912093,108.0
636,0.917037,27.0
637,0.921897,16.0
638,0.926755,9.0
639,0.931613,446.0
640,0.936473,79.0
641,0.941372,24.0
642,0.946232,16.0
643,0.95109,11.0
644,0.955948,511.0
645,0.960893,100.0
646,0.965753,14.0
647,0.970612,18.0
648,0.975507,19.0
649,0.980375,419.0
650,0.985235,94.0
651,0.990093,23.0
652,0.994962,17.0
653,0.999822,10.0
654,1.004682,434.0
655,1.009675,109.0
656,1.014535,34.0
657,1.019393,12.0
658,1.024268,4.0
659,1.029127,426.0
660,1.033987,116.0
661,1.038855,31.0
662,1.043838,9.0
663,1.048698,10.0
664,1.053567,357.0
665,1.058427,114.0
666,1.063287,28.0
667,1.068155,24.0
668,1.073013,11.0
669,1.07791,8.0
676,0.000202,16.0
677,0.005062,15.0
678,0.009922,10.0
679,0.014865,4.0
680,0.019732,9.0
681,0.024592,7.0
682,0.029452,5.0
683,0.034347,9.0
684,0.039208,16.0
685,0.044072,4.0
686,0.048932,17.0
687,0.053878,15.0
688,0.058738,9.0
689,0.063598,13.0
690,0.068493,7.0
691,0.073353,753.0
692,0.078212,156.0
693,0.083072,53.0
694,0.088025,18.0
695,0.092883,12.0
696,0.097743,785.0
697,0.102648,185.0
698,0.107507,43.0
699,0.112365,10.0
700,0.117233,8.0
701,0.122092,693.0
702,0.126952,188.0
703,0.131912,34.0
704,0.136808,10.0
705,0.141667,17.0
706,0.146535,694.0
707,0.151398,174.0
708,0.156258,34.0
709,0.161127,20.0
710,0.165987,13.0
711,0.170882,826.0
712,0.17584,157.0
713,0.180698,46.0
714,0.185558,14.0
715,0.190427,9.0
716,0.195287,720.0
717,0.200147,187.0
718,0.20505,40.0
719,0.20991,15.0
720,0.214857,10.0
721,0.219732,633.0
722,0.224595,197.0
723,0.229453,50.0
724,0.234313,7.0
725,0.23921,17.0
726,0.244068,780.0
727,0.249018,178.0
728,0.253878,30.0
729,0.258738,22.0
730,0.263597,8.0
731,0.268457,612.0
732,0.273353,158.0
733,0.278212,29.0
734,0.283072,21.0
735,0.288013,17.0
736,0.292872,630.0
737,0.297732,171.0
738,0.302592,30.0
739,0.30749,21.0
740,0.312348,14.0
741,0.317208,784.0
742,0.322068,195.0
743,0.32701,54.0
744,0.331872,21.0
745,0.336732,4.0
746,0.341628,660.0
747,0.346493,174.0
748,0.351352,27.0
749,0.356212,31.0
750,0.36108,18.0
751,0.36603,624.0
752,0.37089,144.0
753,0.3758,17.0
754,0.380658,16.0
755,0.385518,18.0
756,0.390387,695.0
757,0.395247,140.0
758,0.400105,43.0
759,0.404975,20.0
760,0.409955,6.0
761,0.414815,693.0
762,0.419683,162.0
763,0.424543,40.0
764,0.429403,19.0
765,0.434273,11.0
766,0.439133,719.0
767,0.444028,168.0
768,0.448985,36.0
769,0.453845,11.0
770,0.458703,16.0
771,0.463572,739.0
772,0.468432,145.0
773,0.473292,47.0
774,0.478187,10.0
775,0.483047,8.0
776,0.487993,630.0
777,0.492852,170.0
778,0.497712,44.0
779,0.502572,24.0
780,0.507432,19.0
781,0.512327,614.0
782,0.517187,169.0
783,0.522047,54.0
784,0.526905,17.0
785,0.53184,4.0
786,0.536698,782.0
787,0.541557,158.0
788,0.546453,41.0
789,0.551313,23.0
790,0.556172,20.0
791,0.561032,590.0
792,0.56589,121.0
793,0.57075,38.0
794,0.575705,21.0
795,0.5806,11.0
796,0.585465,746.0
797,0.590327,190.0
798,0.595187,46.0
799,0.600045,10.0
800,0.604913,5.0
801,0.609773,728.0
802,0.61476,164.0
803,0.619627,41.0
804,0.624487,21.0
805,0.629345,14.0
806,0.634215,762.0
807,0.639073,139.0
808,0.643933,50.0
809,0.648838,9.0
810,0.653775,3.0
811,0.658635,660.0
812,0.663503,165.0
813,0.668362,55.0
814,0.673222,22.0
815,0.67809,10.0
816,0.682993,664.0
817,0.687852,151.0
818,0.69272,40.0
819,0.697667,15.0
820,0.702532,10.0
821,0.7074,694.0
822,0.71226,151.0
823,0.717155,38.0
824,0.722017,14.0
825,0.726877,15.0
826,0.731737,745.0
827,0.73668,175.0
828,0.74154,40.0
829,0.7464,17.0
830,0.751297,11.0
831,0.756155,754.0
832,0.761013,151.0
833,0.765873,36.0
834,0.770735,16.0
835,0.775595,13.0
836,0.780542,664.0
837,0.785445,151.0
838,0.790303,30.0
839,0.795163,12.0
840,0.800022,23.0
841,0.804882,812.0
842,0.809743,171.0
843,0.814603,36.0
844,0.819595,21.0
845,0.824453,13.0
846,0.829315,650.0
847,0.834173,150.0
848,0.839033,30.0
849,0.843892,11.0
850,0.84876,7.0
851,0.853657,712.0
852,0.858603,146.0
853,0.86347,40.0
854,0.868328,16.0
855,0.873187,2.0
856,0.878055,631.0
857,0.882955,153.0
858,0.887852,38.0
859,0.89272,13.0
860,0.897655,11.0
861,0.902515,626.0
862,0.907388,176.0
863,0.912248,51.0
864,0.91711,14.0
865,0.922015,13.0
866,0.926875,665.0
867,0.931733,165.0
868,0.936688,35.0
869,0.941548,14.0
870,0.946408,13.0
871,0.951277,722.0
872,0.956173,137.0
873,0.961033,33.0
874,0.965902,25.0
875,0.97076,10.0
876,0.975707,660.0
877,0.980582,141.0
878,0.985448,35.0
879,0.990345,30.0
880,0.995203,10.0
881,1.000063,674.0
882,1.004922,179.0
883,1.009782,38.0
884,1.014865,21.0
885,1.019723,16.0
886,1.02463,620.0
887,1.029488,147.0
888,1.034347,38.0
895,0.000202,5.0
896,0.005062,13.0
897,0.009922,8.0
898,0.01488,18.0
899,0.019775,3.0
900,0.024635,8.0
901,0.029505,14.0
902,0.034365,128.0
903,0.039223,270.0
904,0.044093,52.0
905,0.048952,25.0
906,0.053935,9.0
907,0.058803,10.0
908,0.063663,128.0
909,0.068523,244.0
910,0.073392,45.0
911,0.078252,22.0
912,0.083113,18.0
913,0.088018,8.0
914,0.092878,95.0
915,0.097825,290.0
916,0.102697,45.0
917,0.107555,27.0
918,0.112415,22.0
919,0.117277,13.0
920,0.122173,108.0
921,0.127033,274.0
922,0.131978,57.0
923,0.136837,24.0
924,0.141697,17.0
925,0.146557,13.0
926,0.151417,90.0
927,0.156315,270.0
928,0.161175,53.0
929,0.166035,24.0
930,0.170983,9.0
931,0.175843,7.0
932,0.180703,108.0
933,0.185562,235.0
934,0.190458,71.0
935,0.195318,26.0
936,0.200178,15.0
937,0.205122,12.0
938,0.209982,106.0
939,0.214842,289.0
940,0.219702,62.0
941,0.224598,25.0
942,0.229457,16.0
943,0.234318,13.0
944,0.239178,50.0
945,0.244128,213.0
946,0.248988,62.0
947,0.253847,22.0
948,0.258757,8.0
949,0.263617,9.0
950,0.268475,63.0
951,0.273343,278.0
952,0.278203,58.0
953,0.283152,20.0
954,0.28802,19.0
955,0.292917,21.0
956,0.297777,119.0
957,0.302652,257.0
958,0.307512,79.0
959,0.312372,19.0
960,0.31724,20.0
961,0.32219,18.0
962,0.327087,101.0
963,0.331955,256.0
964,0.336813,74.0
965,0.341673,17.0
966,0.346547,10.0
967,0.351405,7.0
968,0.356273,69.0
969,0.361262,262.0
970,0.366122,60.0
971,0.37098,14.0
972,0.375855,8.0
973,0.380715,13.0
974,0.385573,45.0
975,0.390433,289.0
976,0.395328,55.0
977,0.400188,20.0
978,0.405135,8.0
979,0.409995,8.0
980,0.414855,118.0
981,0.419717,279.0
982,0.424575,62.0
983,0.42947,16.0
984,0.43433,14.0
985,0.43919,13.0
986,0.444137,91.0
987,0.448997,278.0
988,0.453858,64.0
989,0.458722,25.0
990,0.463618,19.0
991,0.468477,17.0
992,0.473337,53.0
993,0.478195,269.0
994,0.483142,63.0
995,0.488002,26.0
996,0.492862,19.0
997,0.497757,16.0
998,0.502617,121.0
999,0.507475,280.0
1000,0.512335,76.0
1001,0.517202,21.0
1002,0.52215,10.0
1003,0.52701,11.0
1004,0.531915,106.0
1005,0.536773,271.0
1006,0.541633,61.0
1007,0.546505,25.0
1008,0.551365,15.0
1009,0.556225,9.0
1010,0.561182,93.0
1011,0.566077,276.0
1012,0.570937,64.0
1013,0.575805,26.0
1014,0.580665,14.0
1015,0.585523,13.0
1016,0.590393,54.0
1017,0.595252,272.0
1018,0.600228,56.0
1019,0.605098,11.0
1020,0.609958,12.0
1021,0.614818,13.0
1022,0.619687,119.0
1023,0.624547,308.0
1024,0.629405,70.0
1025,0.634302,26.0
1026,0.639232,14.0
1027,0.644178,2.0
1028,0.649047,169.0
1029,0.653908,257.0
1030,0.658767,45.0
1031,0.663627,20.0
1032,0.668522,8.0
1033,0.673382,14.0
1034,0.678242,65.0
1035,0.6831,236.0
1036,0.68805,81.0
1037,0.69291,23.0
1038,0.697768,11.0
1039,0.702665,15.0
1040,0.707525,111.0
1041,0.712385,259.0
1042,0.717245,60.0
1043,0.722105,25.0
1044,0.726967,10.0
1045,0.731915,4.0
1046,0.73681,100.0
1047,0.74167,238.0
1048,0.74653,57.0
1049,0.751388,23.0
1050,0.75625,5.0
1051,0.761108,20.0
1052,0.765968,48.0
1053,0.770865,259.0
1054,0.775815,67.0
1055,0.780673,42.0
1056,0.785533,17.0
1057,0.790402,19.0
1058,0.795262,118.0
1059,0.80012,242.0
1060,0.805028,55.0
1061,0.809887,31.0
1062,0.81483,11.0
1063,0.819697,13.0
1064,0.824557,118.0
1065,0.829417,264.0
1066,0.83429,63.0
1067,0.839268,19.0
1068,0.844127,12.0
1069,0.848995,23.0
1070,0.853942,205.0
1071,0.858805,252.0
1072,0.863673,67.0
1073,0.868533,30.0
1074,0.87343,15.0
1075,0.878298,20.0
1076,0.883157,68.0
1077,0.888017,243.0
1078,0.89297,54.0
1079,0.89783,34.0
1080,0.90269,25.0
1081,0.9076,12.0
1082,0.91246,122.0
1083,0.91732,264.0
1084,0.922188,63.0
1085,0.927048,20.0
1086,0.931993,23.0
1087,0.936862,13.0
1088,0.941758,106.0
1089,0.946617,295.0
1090,0.951475,56.0
1091,0.956335,28.0
1092,0.961195,5.0
1093,0.966053,24.0
1094,0.970998,68.0
1095,0.975895,234.0
1096,0.980755,73.0
1097,0.985613,33.0
1098,0.990472,11.0
1099,0.995332,17.0
1100,1.00019,48.0
1101,1.00505,305.0
1102,1.010037,61.0
1103,1.014897,33.0
1104,1.019757,16.0
1105,1.024615,16.0
1106,1.029475,104.0
1107,1.034333,283.0
1108,1.039193,56.0
1115,0.000212,16.0
1116,0.005072,12.0
1117,0.00993,5.0
1118,0.01479,14.0
1119,0.019688,16.0
1120,0.024635,6.0
1121,0.029502,15.0
1122,0.034362,5.0
1123,0.039222,5.0
1124,0.044082,8.0
1125,0.04894,7.0
1126,0.053837,9.0
1127,0.058697,359.0
1128,0.063643,92.0
1129,0.068503,34.0
1130,0.073362,22.0
1131,0.078222,15.0
1132,0.083083,17.0
1133,0.087978,500.0
1134,0.092838,101.0
